#1.000E-03 = radius(micron) D16 graphite with eff. medium theory (MG EMT)
#w(micron)   Q_ext     Q_abs     Q_sca    g=<cos>   <cos^2>
1.0000E+04 2.047E-09 2.047E-09 4.156E-25  0.00E+00 4.000E-01
9.9541E+03 2.066E-09 2.066E-09 4.233E-25  0.00E+00 4.000E-01
9.9083E+03 2.086E-09 2.086E-09 4.312E-25  0.00E+00 4.000E-01
9.8628E+03 2.105E-09 2.105E-09 4.392E-25  0.00E+00 4.000E-01
9.8175E+03 2.124E-09 2.124E-09 4.474E-25  0.00E+00 4.000E-01
9.7724E+03 2.144E-09 2.144E-09 4.557E-25  0.00E+00 4.000E-01
9.7275E+03 2.164E-09 2.164E-09 4.642E-25  0.00E+00 4.000E-01
9.6828E+03 2.184E-09 2.184E-09 4.728E-25  0.00E+00 4.000E-01
9.6383E+03 2.204E-09 2.204E-09 4.816E-25  0.00E+00 4.000E-01
9.5940E+03 2.224E-09 2.224E-09 4.905E-25  0.00E+00 4.000E-01
9.5499E+03 2.245E-09 2.245E-09 4.997E-25  0.00E+00 4.000E-01
9.5060E+03 2.266E-09 2.266E-09 5.090E-25  0.00E+00 4.000E-01
9.4624E+03 2.287E-09 2.287E-09 5.184E-25  0.00E+00 4.000E-01
9.4189E+03 2.308E-09 2.308E-09 5.281E-25  0.00E+00 4.000E-01
9.3756E+03 2.329E-09 2.329E-09 5.379E-25  0.00E+00 4.000E-01
9.3325E+03 2.351E-09 2.351E-09 5.479E-25  0.00E+00 4.000E-01
9.2897E+03 2.373E-09 2.373E-09 5.581E-25  0.00E+00 4.000E-01
9.2470E+03 2.394E-09 2.394E-09 5.684E-25  0.00E+00 4.000E-01
9.2045E+03 2.417E-09 2.417E-09 5.790E-25  0.00E+00 4.000E-01
9.1622E+03 2.439E-09 2.439E-09 5.898E-25  0.00E+00 4.000E-01
9.1201E+03 2.462E-09 2.462E-09 6.007E-25  0.00E+00 4.000E-01
9.0782E+03 2.484E-09 2.484E-09 6.119E-25  0.00E+00 4.000E-01
9.0365E+03 2.507E-09 2.507E-09 6.233E-25  0.00E+00 4.000E-01
8.9950E+03 2.531E-09 2.531E-09 6.349E-25  0.00E+00 4.000E-01
8.9536E+03 2.554E-09 2.554E-09 6.467E-25  0.00E+00 4.000E-01
8.9125E+03 2.578E-09 2.578E-09 6.587E-25  0.00E+00 4.000E-01
8.8716E+03 2.601E-09 2.601E-09 6.709E-25  0.00E+00 4.000E-01
8.8308E+03 2.625E-09 2.625E-09 6.834E-25  0.00E+00 4.000E-01
8.7902E+03 2.650E-09 2.650E-09 6.961E-25  0.00E+00 4.000E-01
8.7498E+03 2.674E-09 2.674E-09 7.091E-25  0.00E+00 4.000E-01
8.7096E+03 2.699E-09 2.699E-09 7.222E-25  0.00E+00 4.000E-01
8.6696E+03 2.724E-09 2.724E-09 7.357E-25  0.00E+00 4.000E-01
8.6298E+03 2.749E-09 2.749E-09 7.493E-25  0.00E+00 4.000E-01
8.5901E+03 2.775E-09 2.775E-09 7.633E-25  0.00E+00 4.000E-01
8.5507E+03 2.800E-09 2.800E-09 7.775E-25  0.00E+00 4.000E-01
8.5114E+03 2.826E-09 2.826E-09 7.919E-25  0.00E+00 4.000E-01
8.4723E+03 2.852E-09 2.852E-09 8.066E-25  0.00E+00 4.000E-01
8.4333E+03 2.879E-09 2.879E-09 8.216E-25  0.00E+00 4.000E-01
8.3946E+03 2.905E-09 2.905E-09 8.369E-25  0.00E+00 4.000E-01
8.3560E+03 2.932E-09 2.932E-09 8.525E-25  0.00E+00 4.000E-01
8.3176E+03 2.959E-09 2.959E-09 8.683E-25  0.00E+00 4.000E-01
8.2794E+03 2.987E-09 2.987E-09 8.845E-25  0.00E+00 4.000E-01
8.2414E+03 3.014E-09 3.014E-09 9.009E-25  0.00E+00 4.000E-01
8.2035E+03 3.042E-09 3.042E-09 9.177E-25  0.00E+00 4.000E-01
8.1658E+03 3.070E-09 3.070E-09 9.347E-25  0.00E+00 4.000E-01
8.1283E+03 3.099E-09 3.099E-09 9.521E-25  0.00E+00 4.000E-01
8.0910E+03 3.128E-09 3.128E-09 9.698E-25  0.00E+00 4.000E-01
8.0538E+03 3.156E-09 3.156E-09 9.878E-25  0.00E+00 4.000E-01
8.0168E+03 3.186E-09 3.186E-09 1.006E-24  0.00E+00 4.000E-01
7.9799E+03 3.215E-09 3.215E-09 1.025E-24  0.00E+00 4.000E-01
7.9433E+03 3.245E-09 3.245E-09 1.044E-24  0.00E+00 4.000E-01
7.9068E+03 3.275E-09 3.275E-09 1.063E-24  0.00E+00 4.000E-01
7.8705E+03 3.305E-09 3.305E-09 1.083E-24  0.00E+00 4.000E-01
7.8343E+03 3.336E-09 3.336E-09 1.103E-24  0.00E+00 4.000E-01
7.7983E+03 3.367E-09 3.367E-09 1.124E-24  0.00E+00 4.000E-01
7.7625E+03 3.398E-09 3.398E-09 1.145E-24  0.00E+00 4.000E-01
7.7268E+03 3.429E-09 3.429E-09 1.166E-24  0.00E+00 4.000E-01
7.6913E+03 3.461E-09 3.461E-09 1.188E-24  0.00E+00 4.000E-01
7.6560E+03 3.493E-09 3.493E-09 1.210E-24  0.00E+00 4.000E-01
7.6208E+03 3.525E-09 3.525E-09 1.232E-24  0.00E+00 4.000E-01
7.5858E+03 3.558E-09 3.558E-09 1.255E-24  0.00E+00 4.000E-01
7.5509E+03 3.591E-09 3.591E-09 1.278E-24  0.00E+00 4.000E-01
7.5162E+03 3.624E-09 3.624E-09 1.302E-24  0.00E+00 4.000E-01
7.4817E+03 3.658E-09 3.658E-09 1.326E-24  0.00E+00 4.000E-01
7.4473E+03 3.691E-09 3.691E-09 1.351E-24  0.00E+00 4.000E-01
7.4131E+03 3.726E-09 3.726E-09 1.376E-24  0.00E+00 4.000E-01
7.3790E+03 3.760E-09 3.760E-09 1.402E-24  0.00E+00 4.000E-01
7.3451E+03 3.795E-09 3.795E-09 1.428E-24  0.00E+00 4.000E-01
7.3114E+03 3.830E-09 3.830E-09 1.454E-24  0.00E+00 4.000E-01
7.2778E+03 3.865E-09 3.865E-09 1.481E-24  0.00E+00 4.000E-01
7.2444E+03 3.901E-09 3.901E-09 1.509E-24  0.00E+00 4.000E-01
7.2111E+03 3.937E-09 3.937E-09 1.537E-24  0.00E+00 4.000E-01
7.1779E+03 3.974E-09 3.974E-09 1.566E-24  0.00E+00 4.000E-01
7.1450E+03 4.010E-09 4.010E-09 1.595E-24  0.00E+00 4.000E-01
7.1121E+03 4.048E-09 4.048E-09 1.624E-24  0.00E+00 4.000E-01
7.0795E+03 4.085E-09 4.085E-09 1.655E-24  0.00E+00 4.000E-01
7.0469E+03 4.123E-09 4.123E-09 1.685E-24  0.00E+00 4.000E-01
7.0146E+03 4.161E-09 4.161E-09 1.717E-24  0.00E+00 4.000E-01
6.9823E+03 4.199E-09 4.199E-09 1.749E-24  0.00E+00 4.000E-01
6.9502E+03 4.238E-09 4.238E-09 1.781E-24  0.00E+00 4.000E-01
6.9183E+03 4.277E-09 4.277E-09 1.814E-24  0.00E+00 4.000E-01
6.8865E+03 4.317E-09 4.317E-09 1.848E-24  0.00E+00 4.000E-01
6.8549E+03 4.357E-09 4.357E-09 1.882E-24  0.00E+00 4.000E-01
6.8234E+03 4.397E-09 4.397E-09 1.917E-24  0.00E+00 4.000E-01
6.7920E+03 4.438E-09 4.438E-09 1.953E-24  0.00E+00 4.000E-01
6.7608E+03 4.479E-09 4.479E-09 1.989E-24  0.00E+00 4.000E-01
6.7298E+03 4.520E-09 4.520E-09 2.026E-24  0.00E+00 4.000E-01
6.6988E+03 4.562E-09 4.562E-09 2.064E-24  0.00E+00 4.000E-01
6.6681E+03 4.604E-09 4.604E-09 2.102E-24  0.00E+00 4.000E-01
6.6374E+03 4.647E-09 4.647E-09 2.141E-24  0.00E+00 4.000E-01
6.6069E+03 4.690E-09 4.690E-09 2.181E-24  0.00E+00 4.000E-01
6.5766E+03 4.733E-09 4.733E-09 2.222E-24  0.00E+00 4.000E-01
6.5464E+03 4.777E-09 4.777E-09 2.263E-24  0.00E+00 4.000E-01
6.5163E+03 4.821E-09 4.821E-09 2.305E-24  0.00E+00 4.000E-01
6.4863E+03 4.866E-09 4.866E-09 2.348E-24  0.00E+00 4.000E-01
6.4565E+03 4.911E-09 4.911E-09 2.392E-24  0.00E+00 4.000E-01
6.4269E+03 4.957E-09 4.957E-09 2.436E-24  0.00E+00 4.000E-01
6.3973E+03 5.002E-09 5.002E-09 2.481E-24  0.00E+00 4.000E-01
6.3680E+03 5.049E-09 5.049E-09 2.527E-24  0.00E+00 4.000E-01
6.3387E+03 5.095E-09 5.095E-09 2.574E-24  0.00E+00 4.000E-01
6.3096E+03 5.142E-09 5.142E-09 2.622E-24  0.00E+00 4.000E-01
6.2806E+03 5.190E-09 5.190E-09 2.671E-24  0.00E+00 4.000E-01
6.2517E+03 5.238E-09 5.238E-09 2.721E-24  0.00E+00 4.000E-01
6.2230E+03 5.287E-09 5.287E-09 2.771E-24  0.00E+00 4.000E-01
6.1944E+03 5.335E-09 5.335E-09 2.823E-24  0.00E+00 4.000E-01
6.1659E+03 5.385E-09 5.385E-09 2.875E-24  0.00E+00 4.000E-01
6.1376E+03 5.435E-09 5.435E-09 2.929E-24  0.00E+00 4.000E-01
6.1094E+03 5.485E-09 5.485E-09 2.983E-24  0.00E+00 4.000E-01
6.0813E+03 5.536E-09 5.536E-09 3.039E-24  0.00E+00 4.000E-01
6.0534E+03 5.587E-09 5.587E-09 3.095E-24  0.00E+00 4.000E-01
6.0256E+03 5.639E-09 5.639E-09 3.153E-24  0.00E+00 4.000E-01
5.9979E+03 5.691E-09 5.691E-09 3.211E-24  0.00E+00 4.000E-01
5.9704E+03 5.743E-09 5.743E-09 3.271E-24  0.00E+00 4.000E-01
5.9429E+03 5.796E-09 5.796E-09 3.332E-24  0.00E+00 4.000E-01
5.9156E+03 5.850E-09 5.850E-09 3.394E-24  0.00E+00 4.000E-01
5.8884E+03 5.904E-09 5.904E-09 3.457E-24  0.00E+00 4.000E-01
5.8614E+03 5.959E-09 5.959E-09 3.521E-24  0.00E+00 4.000E-01
5.8345E+03 6.014E-09 6.014E-09 3.587E-24  0.00E+00 4.000E-01
5.8076E+03 6.070E-09 6.070E-09 3.653E-24  0.00E+00 4.000E-01
5.7810E+03 6.126E-09 6.126E-09 3.721E-24  0.00E+00 4.000E-01
5.7544E+03 6.182E-09 6.182E-09 3.790E-24  0.00E+00 4.000E-01
5.7280E+03 6.240E-09 6.240E-09 3.861E-24  0.00E+00 4.000E-01
5.7016E+03 6.297E-09 6.297E-09 3.933E-24  0.00E+00 4.000E-01
5.6754E+03 6.356E-09 6.356E-09 4.006E-24  0.00E+00 4.000E-01
5.6494E+03 6.414E-09 6.414E-09 4.080E-24  0.00E+00 4.000E-01
5.6234E+03 6.474E-09 6.474E-09 4.156E-24  0.00E+00 4.000E-01
5.5976E+03 6.534E-09 6.534E-09 4.233E-24  0.00E+00 4.000E-01
5.5719E+03 6.594E-09 6.594E-09 4.312E-24  0.00E+00 4.000E-01
5.5463E+03 6.655E-09 6.655E-09 4.392E-24  0.00E+00 4.000E-01
5.5208E+03 6.717E-09 6.717E-09 4.474E-24  0.00E+00 4.000E-01
5.4954E+03 6.779E-09 6.779E-09 4.557E-24  0.00E+00 4.000E-01
5.4702E+03 6.841E-09 6.841E-09 4.642E-24  0.00E+00 4.000E-01
5.4450E+03 6.905E-09 6.905E-09 4.728E-24  0.00E+00 4.000E-01
5.4200E+03 6.969E-09 6.969E-09 4.816E-24  0.00E+00 4.000E-01
5.3951E+03 7.033E-09 7.033E-09 4.905E-24  0.00E+00 4.000E-01
5.3703E+03 7.098E-09 7.098E-09 4.997E-24  0.00E+00 4.000E-01
5.3456E+03 7.164E-09 7.164E-09 5.089E-24  0.00E+00 4.000E-01
5.3211E+03 7.230E-09 7.230E-09 5.184E-24  0.00E+00 4.000E-01
5.2966E+03 7.297E-09 7.297E-09 5.280E-24  0.00E+00 4.000E-01
5.2723E+03 7.364E-09 7.364E-09 5.379E-24  0.00E+00 4.000E-01
5.2481E+03 7.433E-09 7.433E-09 5.479E-24  0.00E+00 4.000E-01
5.2240E+03 7.501E-09 7.501E-09 5.580E-24  0.00E+00 4.000E-01
5.2000E+03 7.571E-09 7.571E-09 5.684E-24  0.00E+00 4.000E-01
5.1761E+03 7.641E-09 7.641E-09 5.790E-24  0.00E+00 4.000E-01
5.1523E+03 7.711E-09 7.711E-09 5.897E-24  0.00E+00 4.000E-01
5.1286E+03 7.783E-09 7.783E-09 6.007E-24  0.00E+00 4.000E-01
5.1050E+03 7.855E-09 7.855E-09 6.119E-24  0.00E+00 4.000E-01
5.0816E+03 7.927E-09 7.927E-09 6.233E-24  0.00E+00 4.000E-01
5.0582E+03 8.001E-09 8.001E-09 6.348E-24  0.00E+00 4.000E-01
5.0350E+03 8.075E-09 8.075E-09 6.466E-24  0.00E+00 4.000E-01
5.0119E+03 8.149E-09 8.149E-09 6.587E-24  0.00E+00 4.000E-01
4.9888E+03 8.225E-09 8.225E-09 6.709E-24  0.00E+00 4.000E-01
4.9659E+03 8.301E-09 8.301E-09 6.834E-24  0.00E+00 4.000E-01
4.9431E+03 8.378E-09 8.378E-09 6.961E-24  0.00E+00 4.000E-01
4.9204E+03 8.455E-09 8.455E-09 7.090E-24  0.00E+00 4.000E-01
4.8978E+03 8.533E-09 8.533E-09 7.222E-24  0.00E+00 4.000E-01
4.8753E+03 8.612E-09 8.612E-09 7.356E-24  0.00E+00 4.000E-01
4.8529E+03 8.692E-09 8.692E-09 7.493E-24  0.00E+00 4.000E-01
4.8306E+03 8.772E-09 8.772E-09 7.632E-24  0.00E+00 4.000E-01
4.8084E+03 8.854E-09 8.854E-09 7.774E-24  0.00E+00 4.000E-01
4.7863E+03 8.935E-09 8.935E-09 7.919E-24  0.00E+00 4.000E-01
4.7643E+03 9.018E-09 9.018E-09 8.066E-24  0.00E+00 4.000E-01
4.7424E+03 9.102E-09 9.102E-09 8.216E-24  0.00E+00 4.000E-01
4.7206E+03 9.186E-09 9.186E-09 8.369E-24  0.00E+00 4.000E-01
4.6989E+03 9.271E-09 9.271E-09 8.524E-24  0.00E+00 4.000E-01
4.6774E+03 9.356E-09 9.356E-09 8.683E-24  0.00E+00 4.000E-01
4.6559E+03 9.443E-09 9.443E-09 8.844E-24  0.00E+00 4.000E-01
4.6345E+03 9.530E-09 9.530E-09 9.009E-24  0.00E+00 4.000E-01
4.6132E+03 9.618E-09 9.618E-09 9.176E-24  0.00E+00 4.000E-01
4.5920E+03 9.707E-09 9.707E-09 9.347E-24  0.00E+00 4.000E-01
4.5709E+03 9.797E-09 9.797E-09 9.521E-24  0.00E+00 4.000E-01
4.5499E+03 9.888E-09 9.888E-09 9.698E-24  0.00E+00 4.000E-01
4.5290E+03 9.979E-09 9.979E-09 9.878E-24  0.00E+00 4.000E-01
4.5082E+03 1.007E-08 1.007E-08 1.006E-23  0.00E+00 4.000E-01
4.4875E+03 1.016E-08 1.016E-08 1.025E-23  0.00E+00 4.000E-01
4.4668E+03 1.026E-08 1.026E-08 1.044E-23  0.00E+00 4.000E-01
4.4463E+03 1.035E-08 1.035E-08 1.063E-23  0.00E+00 4.000E-01
4.4259E+03 1.045E-08 1.045E-08 1.083E-23  0.00E+00 4.000E-01
4.4055E+03 1.055E-08 1.055E-08 1.103E-23  0.00E+00 4.000E-01
4.3853E+03 1.064E-08 1.064E-08 1.124E-23  0.00E+00 4.000E-01
4.3652E+03 1.074E-08 1.074E-08 1.145E-23  0.00E+00 4.000E-01
4.3451E+03 1.084E-08 1.084E-08 1.166E-23  0.00E+00 4.000E-01
4.3251E+03 1.094E-08 1.094E-08 1.188E-23  0.00E+00 4.000E-01
4.3053E+03 1.104E-08 1.104E-08 1.210E-23  0.00E+00 4.000E-01
4.2855E+03 1.115E-08 1.115E-08 1.232E-23  0.00E+00 4.000E-01
4.2658E+03 1.125E-08 1.125E-08 1.255E-23  0.00E+00 4.000E-01
4.2462E+03 1.135E-08 1.135E-08 1.278E-23  0.00E+00 4.000E-01
4.2267E+03 1.146E-08 1.146E-08 1.302E-23  0.00E+00 4.000E-01
4.2073E+03 1.156E-08 1.156E-08 1.326E-23  0.00E+00 4.000E-01
4.1879E+03 1.167E-08 1.167E-08 1.351E-23  0.00E+00 4.000E-01
4.1687E+03 1.178E-08 1.178E-08 1.376E-23  0.00E+00 4.000E-01
4.1495E+03 1.189E-08 1.189E-08 1.402E-23  0.00E+00 4.000E-01
4.1305E+03 1.200E-08 1.200E-08 1.428E-23  0.00E+00 4.000E-01
4.1115E+03 1.211E-08 1.211E-08 1.454E-23  0.00E+00 4.000E-01
4.0926E+03 1.222E-08 1.222E-08 1.481E-23  0.00E+00 4.000E-01
4.0738E+03 1.233E-08 1.233E-08 1.509E-23  0.00E+00 4.000E-01
4.0551E+03 1.245E-08 1.245E-08 1.537E-23  0.00E+00 4.000E-01
4.0365E+03 1.256E-08 1.256E-08 1.566E-23  0.00E+00 4.000E-01
4.0179E+03 1.268E-08 1.268E-08 1.595E-23  0.00E+00 4.000E-01
3.9994E+03 1.280E-08 1.280E-08 1.624E-23  0.00E+00 4.000E-01
3.9811E+03 1.291E-08 1.291E-08 1.654E-23  0.00E+00 4.000E-01
3.9628E+03 1.303E-08 1.303E-08 1.685E-23  0.00E+00 4.000E-01
3.9446E+03 1.315E-08 1.315E-08 1.717E-23  0.00E+00 4.000E-01
3.9264E+03 1.328E-08 1.328E-08 1.748E-23  0.00E+00 4.000E-01
3.9084E+03 1.340E-08 1.340E-08 1.781E-23  0.00E+00 4.000E-01
3.8905E+03 1.352E-08 1.352E-08 1.814E-23  0.00E+00 4.000E-01
3.8726E+03 1.365E-08 1.365E-08 1.848E-23  0.00E+00 4.000E-01
3.8548E+03 1.377E-08 1.377E-08 1.882E-23  0.00E+00 4.000E-01
3.8371E+03 1.390E-08 1.390E-08 1.917E-23  0.00E+00 4.000E-01
3.8194E+03 1.403E-08 1.403E-08 1.953E-23  0.00E+00 4.000E-01
3.8019E+03 1.416E-08 1.416E-08 1.989E-23  0.00E+00 4.000E-01
3.7844E+03 1.429E-08 1.429E-08 2.026E-23  0.00E+00 4.000E-01
3.7670E+03 1.442E-08 1.442E-08 2.064E-23  0.00E+00 4.000E-01
3.7497E+03 1.456E-08 1.456E-08 2.102E-23  0.00E+00 4.000E-01
3.7325E+03 1.469E-08 1.469E-08 2.141E-23  0.00E+00 4.000E-01
3.7154E+03 1.483E-08 1.483E-08 2.181E-23  0.00E+00 4.000E-01
3.6983E+03 1.496E-08 1.496E-08 2.222E-23  0.00E+00 4.000E-01
3.6813E+03 1.510E-08 1.510E-08 2.263E-23  0.00E+00 4.000E-01
3.6644E+03 1.524E-08 1.524E-08 2.305E-23  0.00E+00 4.000E-01
3.6475E+03 1.538E-08 1.538E-08 2.348E-23  0.00E+00 4.000E-01
3.6308E+03 1.552E-08 1.552E-08 2.391E-23  0.00E+00 4.000E-01
3.6141E+03 1.567E-08 1.567E-08 2.436E-23  0.00E+00 4.000E-01
3.5975E+03 1.581E-08 1.581E-08 2.481E-23  0.00E+00 4.000E-01
3.5810E+03 1.596E-08 1.596E-08 2.527E-23  0.00E+00 4.000E-01
3.5645E+03 1.611E-08 1.611E-08 2.574E-23  0.00E+00 4.000E-01
3.5481E+03 1.626E-08 1.626E-08 2.622E-23  0.00E+00 4.000E-01
3.5318E+03 1.641E-08 1.641E-08 2.671E-23  0.00E+00 4.000E-01
3.5156E+03 1.656E-08 1.656E-08 2.720E-23  0.00E+00 4.000E-01
3.4995E+03 1.671E-08 1.671E-08 2.771E-23  0.00E+00 4.000E-01
3.4834E+03 1.687E-08 1.687E-08 2.823E-23  0.00E+00 4.000E-01
3.4674E+03 1.702E-08 1.702E-08 2.875E-23  0.00E+00 4.000E-01
3.4514E+03 1.718E-08 1.718E-08 2.928E-23  0.00E+00 4.000E-01
3.4356E+03 1.734E-08 1.734E-08 2.983E-23  0.00E+00 4.000E-01
3.4198E+03 1.750E-08 1.750E-08 3.038E-23  0.00E+00 4.000E-01
3.4041E+03 1.766E-08 1.766E-08 3.095E-23  0.00E+00 4.000E-01
3.3884E+03 1.782E-08 1.782E-08 3.152E-23  0.00E+00 4.000E-01
3.3729E+03 1.799E-08 1.799E-08 3.211E-23  0.00E+00 4.000E-01
3.3574E+03 1.815E-08 1.815E-08 3.271E-23  0.00E+00 4.000E-01
3.3420E+03 1.832E-08 1.832E-08 3.331E-23  0.00E+00 4.000E-01
3.3266E+03 1.849E-08 1.849E-08 3.393E-23  0.00E+00 4.000E-01
3.3113E+03 1.866E-08 1.866E-08 3.457E-23  0.00E+00 4.000E-01
3.2961E+03 1.884E-08 1.884E-08 3.521E-23  0.00E+00 4.000E-01
3.2810E+03 1.901E-08 1.901E-08 3.586E-23  0.00E+00 4.000E-01
3.2659E+03 1.919E-08 1.919E-08 3.653E-23  0.00E+00 4.000E-01
3.2509E+03 1.936E-08 1.936E-08 3.721E-23  0.00E+00 4.000E-01
3.2359E+03 1.954E-08 1.954E-08 3.790E-23  0.00E+00 4.000E-01
3.2211E+03 1.972E-08 1.972E-08 3.860E-23  0.00E+00 4.000E-01
3.2063E+03 1.990E-08 1.990E-08 3.932E-23  0.00E+00 4.000E-01
3.1915E+03 2.009E-08 2.009E-08 4.005E-23  0.00E+00 4.000E-01
3.1769E+03 2.027E-08 2.027E-08 4.080E-23  0.00E+00 4.000E-01
3.1623E+03 2.046E-08 2.046E-08 4.156E-23  0.00E+00 4.000E-01
3.1477E+03 2.065E-08 2.065E-08 4.233E-23  0.00E+00 4.000E-01
3.1333E+03 2.084E-08 2.084E-08 4.312E-23  0.00E+00 4.000E-01
3.1189E+03 2.103E-08 2.103E-08 4.392E-23  0.00E+00 4.000E-01
3.1046E+03 2.123E-08 2.123E-08 4.473E-23  0.00E+00 4.000E-01
3.0903E+03 2.143E-08 2.143E-08 4.556E-23  0.00E+00 4.000E-01
3.0761E+03 2.162E-08 2.162E-08 4.641E-23  0.00E+00 4.000E-01
3.0620E+03 2.182E-08 2.182E-08 4.727E-23  0.00E+00 4.000E-01
3.0479E+03 2.203E-08 2.203E-08 4.815E-23  0.00E+00 4.000E-01
3.0339E+03 2.223E-08 2.223E-08 4.905E-23  0.00E+00 4.000E-01
3.0200E+03 2.243E-08 2.243E-08 4.996E-23  0.00E+00 4.000E-01
3.0061E+03 2.264E-08 2.264E-08 5.089E-23  0.00E+00 4.000E-01
2.9923E+03 2.285E-08 2.285E-08 5.184E-23  0.00E+00 4.000E-01
2.9785E+03 2.306E-08 2.306E-08 5.280E-23  0.00E+00 4.000E-01
2.9648E+03 2.328E-08 2.328E-08 5.378E-23  0.00E+00 4.000E-01
2.9512E+03 2.349E-08 2.349E-08 5.478E-23  0.00E+00 4.000E-01
2.9376E+03 2.371E-08 2.371E-08 5.580E-23  0.00E+00 4.000E-01
2.9242E+03 2.393E-08 2.393E-08 5.684E-23  0.00E+00 4.000E-01
2.9107E+03 2.415E-08 2.415E-08 5.789E-23  0.00E+00 4.000E-01
2.8973E+03 2.437E-08 2.437E-08 5.897E-23  0.00E+00 4.000E-01
2.8840E+03 2.460E-08 2.460E-08 6.007E-23  0.00E+00 4.000E-01
2.8708E+03 2.482E-08 2.482E-08 6.118E-23  0.00E+00 4.000E-01
2.8576E+03 2.505E-08 2.505E-08 6.232E-23  0.00E+00 4.000E-01
2.8445E+03 2.529E-08 2.529E-08 6.348E-23  0.00E+00 4.000E-01
2.8314E+03 2.552E-08 2.552E-08 6.466E-23  0.00E+00 4.000E-01
2.8184E+03 2.576E-08 2.576E-08 6.586E-23  0.00E+00 4.000E-01
2.8054E+03 2.599E-08 2.599E-08 6.708E-23  0.00E+00 4.000E-01
2.7925E+03 2.623E-08 2.623E-08 6.833E-23  0.00E+00 4.000E-01
2.7797E+03 2.648E-08 2.648E-08 6.960E-23  0.00E+00 4.000E-01
2.7669E+03 2.672E-08 2.672E-08 7.090E-23  0.00E+00 4.000E-01
2.7542E+03 2.697E-08 2.697E-08 7.221E-23  0.00E+00 4.000E-01
2.7416E+03 2.722E-08 2.722E-08 7.356E-23  0.00E+00 4.000E-01
2.7290E+03 2.747E-08 2.747E-08 7.492E-23  0.00E+00 4.000E-01
2.7164E+03 2.772E-08 2.772E-08 7.632E-23  0.00E+00 4.000E-01
2.7040E+03 2.798E-08 2.798E-08 7.773E-23  0.00E+00 4.000E-01
2.6915E+03 2.824E-08 2.824E-08 7.918E-23  0.00E+00 4.000E-01
2.6792E+03 2.850E-08 2.850E-08 8.065E-23  0.00E+00 4.000E-01
2.6669E+03 2.876E-08 2.876E-08 8.215E-23  0.00E+00 4.000E-01
2.6546E+03 2.903E-08 2.903E-08 8.368E-23  0.00E+00 4.000E-01
2.6424E+03 2.930E-08 2.930E-08 8.523E-23  0.00E+00 4.000E-01
2.6303E+03 2.957E-08 2.957E-08 8.682E-23  0.00E+00 4.000E-01
2.6182E+03 2.984E-08 2.984E-08 8.843E-23  0.00E+00 4.000E-01
2.6062E+03 3.012E-08 3.012E-08 9.008E-23  0.00E+00 4.000E-01
2.5942E+03 3.039E-08 3.039E-08 9.175E-23  0.00E+00 4.000E-01
2.5823E+03 3.068E-08 3.068E-08 9.346E-23  0.00E+00 4.000E-01
2.5704E+03 3.096E-08 3.096E-08 9.519E-23  0.00E+00 4.000E-01
2.5586E+03 3.125E-08 3.125E-08 9.696E-23  0.00E+00 4.000E-01
2.5468E+03 3.153E-08 3.153E-08 9.876E-23  0.00E+00 4.000E-01
2.5351E+03 3.183E-08 3.183E-08 1.006E-22  0.00E+00 4.000E-01
2.5235E+03 3.212E-08 3.212E-08 1.025E-22  0.00E+00 4.000E-01
2.5119E+03 3.242E-08 3.242E-08 1.044E-22  0.00E+00 4.000E-01
2.5003E+03 3.272E-08 3.272E-08 1.063E-22  0.00E+00 4.000E-01
2.4889E+03 3.302E-08 3.302E-08 1.083E-22  0.00E+00 4.000E-01
2.4774E+03 3.332E-08 3.332E-08 1.103E-22  0.00E+00 4.000E-01
2.4660E+03 3.363E-08 3.363E-08 1.124E-22  0.00E+00 4.000E-01
2.4547E+03 3.394E-08 3.394E-08 1.144E-22  0.00E+00 4.000E-01
2.4434E+03 3.426E-08 3.426E-08 1.166E-22  0.00E+00 4.000E-01
2.4322E+03 3.457E-08 3.457E-08 1.187E-22  0.00E+00 4.000E-01
2.4210E+03 3.489E-08 3.489E-08 1.209E-22  0.00E+00 4.000E-01
2.4099E+03 3.521E-08 3.521E-08 1.232E-22  0.00E+00 4.000E-01
2.3988E+03 3.554E-08 3.554E-08 1.255E-22  0.00E+00 4.000E-01
2.3878E+03 3.587E-08 3.587E-08 1.278E-22  0.00E+00 4.000E-01
2.3768E+03 3.620E-08 3.620E-08 1.302E-22  0.00E+00 4.000E-01
2.3659E+03 3.653E-08 3.653E-08 1.326E-22  0.00E+00 4.000E-01
2.3550E+03 3.687E-08 3.687E-08 1.351E-22  0.00E+00 4.000E-01
2.3442E+03 3.721E-08 3.721E-08 1.376E-22  0.00E+00 4.000E-01
2.3335E+03 3.756E-08 3.756E-08 1.401E-22  0.00E+00 4.000E-01
2.3227E+03 3.790E-08 3.790E-08 1.428E-22  0.00E+00 4.000E-01
2.3121E+03 3.825E-08 3.825E-08 1.454E-22  0.00E+00 4.000E-01
2.3014E+03 3.861E-08 3.861E-08 1.481E-22  0.00E+00 4.000E-01
2.2909E+03 3.896E-08 3.896E-08 1.509E-22  0.00E+00 4.000E-01
2.2803E+03 3.932E-08 3.932E-08 1.537E-22  0.00E+00 4.000E-01
2.2699E+03 3.969E-08 3.969E-08 1.565E-22  0.00E+00 4.000E-01
2.2594E+03 4.005E-08 4.005E-08 1.594E-22  0.00E+00 4.000E-01
2.2491E+03 4.042E-08 4.042E-08 1.624E-22  0.00E+00 4.000E-01
